Time (s),PF,RR,BAT,MT
0.200214,4076.680000,4076.680000,4076.680000,4076.680000
0.201214,4076.560000,4076.560000,4076.560000,4076.560000
0.202214,4076.440000,4076.440000,4076.440000,4076.440000
0.203214,4076.330000,4076.330000,4076.330000,4076.330000
0.204214,4076.210000,4076.210000,4076.210000,4076.210000
0.205214,4076.090000,4076.090000,4076.090000,4076.090000
0.206214,4075.980000,4075.980000,4075.980000,4075.980000
0.207214,4075.860000,4075.860000,4075.860000,4075.860000
0.208214,4075.740000,4075.740000,4075.740000,4075.740000
0.209214,4075.630000,4075.630000,4075.630000,4075.630000
0.210214,4075.510000,4075.510000,4075.510000,4075.510000
0.211214,4075.390000,4075.390000,4075.390000,4075.390000
0.212214,4075.280000,4075.280000,4075.280000,4075.280000
0.213214,4075.160000,4075.160000,4075.160000,4075.160000
0.214214,4075.040000,4075.040000,4075.040000,4075.040000
0.215214,4074.930000,4074.930000,4074.930000,4074.930000
0.216214,4074.810000,4074.810000,4074.810000,4074.810000
0.217214,4074.690000,4074.690000,4074.690000,4074.690000
0.218214,4074.580000,4074.580000,4074.580000,4074.580000
0.219214,4074.460000,4074.460000,4074.460000,4074.460000
0.220214,4074.350000,4074.350000,4074.350000,4074.350000
0.221214,4074.230000,4074.230000,4074.230000,4074.230000
0.222214,4074.110000,4074.110000,4074.110000,4074.110000
0.223214,4074.000000,4074.000000,4074.000000,4074.000000
0.224214,4073.880000,4073.880000,4073.880000,4073.880000
0.225214,4073.760000,4073.760000,4073.760000,4073.760000
0.226214,4073.650000,4073.650000,4073.650000,4073.650000
0.227214,4073.530000,4073.530000,4073.530000,4073.530000
0.228214,4073.410000,4073.410000,4073.410000,4073.410000
0.229214,4073.300000,4073.300000,4073.300000,4073.300000
0.230214,4073.180000,4073.180000,4073.180000,4073.180000
0.231214,4073.060000,4073.060000,4073.060000,4073.060000
0.232214,4072.950000,4072.950000,4072.950000,4072.950000
0.233214,4072.830000,4072.830000,4072.830000,4072.830000
0.234214,4072.720000,4072.720000,4072.720000,4072.720000
0.235214,4072.600000,4072.600000,4072.600000,4072.600000
0.236214,4072.480000,4072.480000,4072.480000,4072.480000
0.237214,4072.370000,4072.370000,4072.370000,4072.370000
0.238214,4072.250000,4072.250000,4072.250000,4072.250000
0.239214,4072.130000,4072.130000,4072.130000,4072.130000
0.240214,4072.020000,4072.020000,4072.020000,4072.020000
0.241214,4071.900000,4071.900000,4071.900000,4071.900000
0.242214,4071.780000,4071.780000,4071.780000,4071.780000
0.243214,4071.670000,4071.670000,4071.670000,4071.670000
0.244214,4071.550000,4071.550000,4071.550000,4071.550000
0.245214,4071.430000,4071.430000,4071.430000,4071.430000
0.246214,4071.320000,4071.320000,4071.320000,4071.320000
0.247214,4071.200000,4071.200000,4071.200000,4071.200000
0.248214,4071.090000,4071.090000,4071.090000,4071.090000
0.249214,4070.970000,4070.970000,4070.970000,4070.970000
0.250214,4070.850000,4070.850000,4070.850000,4070.850000
0.251214,4070.740000,4070.740000,4070.740000,4070.740000
0.252214,4070.620000,4070.620000,4070.620000,4070.620000
0.253214,4070.500000,4070.500000,4070.500000,4070.500000
0.254214,4070.390000,4070.390000,4070.390000,4070.390000
0.255214,4070.270000,4070.270000,4070.270000,4070.270000
0.256214,4070.160000,4070.160000,4070.160000,4070.160000
0.257214,4070.040000,4070.040000,4070.040000,4070.040000
0.258214,4069.920000,4069.920000,4069.920000,4069.920000
0.259214,4069.810000,4069.810000,4069.810000,4069.810000
0.260214,4069.690000,4069.690000,4069.690000,4069.690000
0.261214,4069.570000,4069.570000,4069.570000,4069.570000
0.262214,4069.460000,4069.460000,4069.460000,4069.460000
0.263214,4069.340000,4069.340000,4069.340000,4069.340000
0.264214,4069.230000,4069.230000,4069.230000,4069.230000
0.265214,4069.110000,4069.110000,4069.110000,4069.110000
0.266214,4068.990000,4068.990000,4068.990000,4068.990000
0.267214,4068.880000,4068.880000,4068.880000,4068.880000
0.268214,4068.760000,4068.760000,4068.760000,4068.760000
0.269214,4068.640000,4068.640000,4068.640000,4068.640000
0.270214,4068.530000,4068.530000,4068.530000,4068.530000
0.271214,4068.410000,4068.410000,4068.410000,4068.410000
0.272214,4068.300000,4068.300000,4068.300000,4068.300000
0.273214,4068.180000,4068.180000,4068.180000,4068.180000
0.274214,4068.060000,4068.060000,4068.060000,4068.060000
0.275214,4067.950000,4067.950000,4067.950000,4067.950000
0.276214,4067.830000,4067.830000,4067.830000,4067.830000
0.277214,4067.710000,4067.710000,4067.710000,4067.710000
0.278214,4067.600000,4067.600000,4067.600000,4067.600000
0.279214,4067.480000,4067.480000,4067.480000,4067.480000
0.280214,4067.370000,4067.370000,4067.370000,4067.370000
0.281214,4067.250000,4067.250000,4067.250000,4067.250000
0.282214,4067.130000,4067.130000,4067.130000,4067.130000
0.283214,4067.020000,4067.020000,4067.020000,4067.020000
0.284214,4066.900000,4066.900000,4066.900000,4066.900000
0.285214,4066.780000,4066.780000,4066.780000,4066.780000
0.286214,4066.670000,4066.670000,4066.670000,4066.670000
0.287214,4066.550000,4066.550000,4066.550000,4066.550000
0.288214,4066.440000,4066.440000,4066.440000,4066.440000
0.289214,4066.320000,4066.320000,4066.320000,4066.320000
0.290214,4066.200000,4066.200000,4066.200000,4066.200000
0.291214,4066.090000,4066.090000,4066.090000,4066.090000
0.292214,4065.970000,4065.970000,4065.970000,4065.970000
0.293214,4065.860000,4065.860000,4065.860000,4065.860000
0.294214,4065.740000,4065.740000,4065.740000,4065.740000
0.295214,4065.620000,4065.620000,4065.620000,4065.620000
0.296214,4065.510000,4065.510000,4065.510000,4065.510000
0.297214,4065.390000,4065.390000,4065.390000,4065.390000
0.298214,4065.280000,4065.280000,4065.280000,4065.280000
0.299214,4065.160000,4065.160000,4065.160000,4065.160000
0.300214,4065.040000,4065.040000,4065.040000,4065.040000
0.301214,4064.930000,4064.930000,4064.930000,4064.930000
0.302214,4064.810000,4064.810000,4064.810000,4064.810000
0.303214,4064.690000,4064.690000,4064.690000,4064.690000
0.304214,4064.580000,4064.580000,4064.580000,4064.580000
0.305214,4064.460000,4064.460000,4064.460000,4064.460000
0.306214,4064.350000,4064.350000,4064.350000,4064.350000
0.307214,4064.230000,4064.230000,4064.230000,4064.230000
0.308214,4064.110000,4064.110000,4064.110000,4064.110000
0.309214,4064.000000,4064.000000,4064.000000,4064.000000
0.310214,4063.880000,4063.880000,4063.880000,4063.880000
0.311214,4063.770000,4063.770000,4063.770000,4063.770000
0.312214,4063.650000,4063.650000,4063.650000,4063.650000
0.313214,4063.530000,4063.530000,4063.530000,4063.530000
0.314214,4063.420000,4063.420000,4063.420000,4063.420000
0.315214,4063.300000,4063.300000,4063.300000,4063.300000
0.316214,4063.190000,4063.190000,4063.190000,4063.190000
0.317214,4063.070000,4063.070000,4063.070000,4063.070000
0.318214,4062.950000,4062.950000,4062.950000,4062.950000
0.319214,4062.840000,4062.840000,4062.840000,4062.840000
0.320214,4062.720000,4062.720000,4062.720000,4062.720000
0.321214,4062.610000,4062.610000,4062.610000,4062.610000
0.322214,4062.490000,4062.490000,4062.490000,4062.490000
0.323214,4062.370000,4062.370000,4062.370000,4062.370000
0.324214,4062.260000,4062.260000,4062.260000,4062.260000
0.325214,4062.140000,4062.140000,4062.140000,4062.140000
0.326214,4062.030000,4062.030000,4062.030000,4062.030000
0.327214,4061.910000,4061.910000,4061.910000,4061.910000
0.328214,4061.790000,4061.790000,4061.790000,4061.790000
0.329214,4061.680000,4061.680000,4061.680000,4061.680000
0.330214,4061.560000,4061.560000,4061.560000,4061.560000
0.331214,4061.450000,4061.450000,4061.450000,4061.450000
0.332214,4061.330000,4061.330000,4061.330000,4061.330000
0.333214,4061.210000,4061.210000,4061.210000,4061.210000
0.334214,4061.100000,4061.100000,4061.100000,4061.100000
0.335214,4060.980000,4060.980000,4060.980000,4060.980000
0.336214,4060.870000,4060.870000,4060.870000,4060.870000
0.337214,4060.750000,4060.750000,4060.750000,4060.750000
0.338214,4060.640000,4060.640000,4060.640000,4060.640000
0.339214,4060.520000,4060.520000,4060.520000,4060.520000
0.340214,4060.400000,4060.400000,4060.400000,4060.400000
0.341214,4060.290000,4060.290000,4060.290000,4060.290000
0.342214,4060.170000,4060.170000,4060.170000,4060.170000
0.343214,4060.060000,4060.060000,4060.060000,4060.060000
0.344214,4059.940000,4059.940000,4059.940000,4059.940000
0.345214,4059.820000,4059.820000,4059.820000,4059.820000
0.346214,4059.710000,4059.710000,4059.710000,4059.710000
0.347214,4059.590000,4059.590000,4059.590000,4059.590000
0.348214,4059.480000,4059.480000,4059.480000,4059.480000
0.349214,4059.360000,4059.360000,4059.360000,4059.360000
0.350214,4059.240000,4059.240000,4059.240000,4059.240000
0.351214,4059.130000,4059.130000,4059.130000,4059.130000
0.352214,4059.010000,4059.010000,4059.010000,4059.010000
0.353214,4058.900000,4058.900000,4058.900000,4058.900000
0.354214,4058.780000,4058.780000,4058.780000,4058.780000
0.355214,4058.670000,4058.670000,4058.670000,4058.670000
0.356214,4058.550000,4058.550000,4058.550000,4058.550000
0.357214,4058.430000,4058.430000,4058.430000,4058.430000
0.358214,4058.320000,4058.320000,4058.320000,4058.320000
0.359214,4058.200000,4058.200000,4058.200000,4058.200000
0.360214,4058.090000,4058.090000,4058.090000,4058.090000
0.361214,4057.970000,4057.970000,4057.970000,4057.970000
0.362214,4057.850000,4057.850000,4057.850000,4057.850000
0.363214,4057.740000,4057.740000,4057.740000,4057.740000
0.364214,4057.620000,4057.620000,4057.620000,4057.620000
0.365214,4057.510000,4057.510000,4057.510000,4057.510000
0.366214,4057.390000,4057.390000,4057.390000,4057.390000
0.367214,4057.280000,4057.280000,4057.280000,4057.280000
0.368214,4057.160000,4057.160000,4057.160000,4057.160000
0.369214,4057.040000,4057.040000,4057.040000,4057.040000
0.370214,4056.930000,4056.930000,4056.930000,4056.930000
0.371214,4056.810000,4056.810000,4056.810000,4056.810000
0.372214,4056.700000,4056.700000,4056.700000,4056.700000
0.373214,4056.580000,4056.580000,4056.580000,4056.580000
0.374214,4056.470000,4056.470000,4056.470000,4056.470000
0.375214,4056.350000,4056.350000,4056.350000,4056.350000
0.376214,4056.230000,4056.230000,4056.230000,4056.230000
0.377214,4056.120000,4056.120000,4056.120000,4056.120000
0.378214,4056.000000,4056.000000,4056.000000,4056.000000
0.379214,4055.890000,4055.890000,4055.890000,4055.890000
0.380214,4055.770000,4055.770000,4055.770000,4055.770000
0.381214,4055.660000,4055.660000,4055.660000,4055.660000
0.382214,4055.540000,4055.540000,4055.540000,4055.540000
0.383214,4055.420000,4055.420000,4055.420000,4055.420000
0.384214,4055.310000,4055.310000,4055.310000,4055.310000
0.385214,4055.190000,4055.190000,4055.190000,4055.190000
0.386214,4055.080000,4055.080000,4055.080000,4055.080000
0.387214,4054.960000,4054.960000,4054.960000,4054.960000
0.388214,4054.850000,4054.850000,4054.850000,4054.850000
0.389214,4054.730000,4054.730000,4054.730000,4054.730000
0.390214,4054.610000,4054.610000,4054.610000,4054.610000
0.391214,4054.500000,4054.500000,4054.500000,4054.500000
0.392214,4054.380000,4054.380000,4054.380000,4054.380000
0.393214,4054.270000,4054.270000,4054.270000,4054.270000
0.394214,4054.150000,4054.150000,4054.150000,4054.150000
0.395214,4054.040000,4054.040000,4054.040000,4054.040000
0.396214,4053.920000,4053.920000,4053.920000,4053.920000
0.397214,4053.810000,4053.810000,4053.810000,4053.810000
0.398214,4053.690000,4053.690000,4053.690000,4053.690000
0.399214,4053.570000,4053.570000,4053.570000,4053.570000
0.400214,4053.460000,4053.460000,4053.460000,4053.460000
0.401214,4053.340000,4053.340000,4053.340000,4053.340000
0.402214,4053.230000,4053.230000,4053.230000,4053.230000
0.403214,4053.110000,4053.110000,4053.110000,4053.110000
0.404214,4053.000000,4053.000000,4053.000000,4053.000000
0.405214,4052.880000,4052.880000,4052.880000,4052.880000
0.406214,4052.760000,4052.760000,4052.760000,4052.760000
0.407214,4052.650000,4052.650000,4052.650000,4052.650000
0.408214,4052.530000,4052.530000,4052.530000,4052.530000
0.409214,4052.420000,4052.420000,4052.420000,4052.420000
0.410214,4052.300000,4052.300000,4052.300000,4052.300000
0.411214,4052.190000,4052.190000,4052.190000,4052.190000
0.412214,4052.070000,4052.070000,4052.070000,4052.070000
0.413214,4051.960000,4051.960000,4051.960000,4051.960000
0.414214,4051.840000,4051.840000,4051.840000,4051.840000
0.415214,4051.720000,4051.720000,4051.720000,4051.720000
0.416214,4051.610000,4051.610000,4051.610000,4051.610000
0.417214,4051.490000,4051.490000,4051.490000,4051.490000
0.418214,4051.380000,4051.380000,4051.380000,4051.380000
0.419214,4051.260000,4051.260000,4051.260000,4051.260000
0.420214,4051.150000,4051.150000,4051.150000,4051.150000
0.421214,4051.030000,4051.030000,4051.030000,4051.030000
0.422214,4050.920000,4050.920000,4050.920000,4050.920000
0.423214,4050.800000,4050.800000,4050.800000,4050.800000
0.424214,4050.680000,4050.680000,4050.680000,4050.680000
0.425214,4050.570000,4050.570000,4050.570000,4050.570000
0.426214,4050.450000,4050.450000,4050.450000,4050.450000
0.427214,4050.340000,4050.340000,4050.340000,4050.340000
0.428214,4050.220000,4050.220000,4050.220000,4050.220000
0.429214,4050.110000,4050.110000,4050.110000,4050.110000
0.430214,4049.990000,4049.990000,4049.990000,4049.990000
0.431214,4049.880000,4049.880000,4049.880000,4049.880000
0.432214,4049.760000,4049.760000,4049.760000,4049.760000
0.433214,4049.650000,4049.650000,4049.650000,4049.650000
0.434214,4049.530000,4049.530000,4049.530000,4049.530000
0.435214,4049.410000,4049.410000,4049.410000,4049.410000
0.436214,4049.300000,4049.300000,4049.300000,4049.300000
0.437214,4049.180000,4049.180000,4049.180000,4049.180000
0.438214,4049.070000,4049.070000,4049.070000,4049.070000
0.439214,4048.950000,4048.950000,4048.950000,4048.950000
0.440214,4048.840000,4048.840000,4048.840000,4048.840000
0.441214,4048.720000,4048.720000,4048.720000,4048.720000
0.442214,4048.610000,4048.610000,4048.610000,4048.610000
0.443214,4048.490000,4048.490000,4048.490000,4048.490000
0.444214,4048.380000,4048.380000,4048.380000,4048.380000
0.445214,4048.260000,4048.260000,4048.260000,4048.260000
0.446214,4048.150000,4048.150000,4048.150000,4048.150000
0.447214,4048.030000,4048.030000,4048.030000,4048.030000
0.448214,4047.910000,4047.910000,4047.910000,4047.910000
0.449214,4047.800000,4047.800000,4047.800000,4047.800000
0.450214,4047.680000,4047.680000,4047.680000,4047.680000
0.451214,4047.570000,4047.570000,4047.570000,4047.570000
0.452214,4047.450000,4047.450000,4047.450000,4047.450000
0.453214,4047.340000,4047.340000,4047.340000,4047.340000
0.454214,4047.220000,4047.220000,4047.220000,4047.220000
0.455214,4047.110000,4047.110000,4047.110000,4047.110000
0.456214,4046.990000,4046.990000,4046.990000,4046.990000
0.457214,4046.880000,4046.880000,4046.880000,4046.880000
0.458214,4046.760000,4046.760000,4046.760000,4046.760000
0.459214,4046.650000,4046.650000,4046.650000,4046.650000
0.460214,4046.530000,4046.530000,4046.530000,4046.530000
0.461214,4046.410000,4046.410000,4046.410000,4046.410000
0.462214,4046.300000,4046.300000,4046.300000,4046.300000
0.463214,4046.180000,4046.180000,4046.180000,4046.180000
0.464214,4046.070000,4046.070000,4046.070000,4046.070000
0.465214,4045.950000,4045.950000,4045.950000,4045.950000
0.466214,4045.840000,4045.840000,4045.840000,4045.840000
0.467214,4045.720000,4045.720000,4045.720000,4045.720000
0.468214,4045.610000,4045.610000,4045.610000,4045.610000
0.469214,4045.490000,4045.490000,4045.490000,4045.490000
0.470214,4045.380000,4045.380000,4045.380000,4045.380000
0.471214,4045.260000,4045.260000,4045.260000,4045.260000
0.472214,4045.150000,4045.150000,4045.150000,4045.150000
0.473214,4045.030000,4045.030000,4045.030000,4045.030000
0.474214,4044.920000,4044.920000,4044.920000,4044.920000
0.475214,4044.800000,4044.800000,4044.800000,4044.800000
0.476214,4044.690000,4044.690000,4044.690000,4044.690000
0.477214,4044.570000,4044.570000,4044.570000,4044.570000
0.478214,4044.460000,4044.460000,4044.460000,4044.460000
0.479214,4044.340000,4044.340000,4044.340000,4044.340000
0.480214,4044.220000,4044.220000,4044.220000,4044.220000
0.481214,4044.110000,4044.110000,4044.110000,4044.110000
0.482214,4043.990000,4043.990000,4043.990000,4043.990000
0.483214,4043.880000,4043.880000,4043.880000,4043.880000
0.484214,4043.760000,4043.760000,4043.760000,4043.760000
0.485214,4043.650000,4043.650000,4043.650000,4043.650000
0.486214,4043.530000,4043.530000,4043.530000,4043.530000
0.487214,4043.420000,4043.420000,4043.420000,4043.420000
0.488214,4043.300000,4043.300000,4043.300000,4043.300000
0.489214,4043.190000,4043.190000,4043.190000,4043.190000
0.490214,4043.070000,4043.070000,4043.070000,4043.070000
0.491214,4042.960000,4042.960000,4042.960000,4042.960000
0.492214,4042.840000,4042.840000,4042.840000,4042.840000
0.493214,4042.730000,4042.730000,4042.730000,4042.730000
0.494214,4042.610000,4042.610000,4042.610000,4042.610000
0.495214,4042.500000,4042.500000,4042.500000,4042.500000
0.496214,4042.380000,4042.380000,4042.380000,4042.380000
0.497214,4042.270000,4042.270000,4042.270000,4042.270000
0.498214,4042.150000,4042.150000,4042.150000,4042.150000
0.499214,4042.040000,4042.040000,4042.040000,4042.040000
0.500214,4041.920000,4041.920000,4041.920000,4041.920000
0.501214,4041.810000,4041.810000,4041.810000,4041.810000
0.502214,4041.690000,4041.690000,4041.690000,4041.690000
0.503214,4041.580000,4041.580000,4041.580000,4041.580000
0.504214,4041.460000,4041.460000,4041.460000,4041.460000
0.505214,2.504490,251.710000,2.504490,2.504490
0.506214,2.504390,251.702000,2.504390,2.504390
0.507214,2.504300,251.695000,2.504300,2.504300
0.508214,2.504200,251.688000,2.504200,2.504200
0.509214,2.504110,251.681000,4040.880000,2.504110
0.510214,2.504010,251.674000,4040.770000,2.504010
0.511214,2.503920,251.666000,4040.650000,2.503920
0.512214,2.503820,251.659000,2.503820,2.503820
0.513214,2.503730,251.652000,2.503730,2.503730
0.514214,2.503630,251.645000,2.503630,2.503630
0.515214,2.503540,251.638000,2.503540,2.503540
0.516214,2.503440,251.630000,2.503440,2.503440
0.517214,2.503350,251.623000,2.503350,2.503350
0.518214,2.503250,251.616000,2.503250,2.503250
0.519214,2.503160,251.609000,2.503160,2.503160
0.520214,2.503060,251.602000,2.503060,2.503060
0.521214,2.502970,251.595000,2.502970,2.502970
0.522214,2.502870,251.587000,2.502870,2.502870
0.523214,2.502780,251.580000,2.502780,2.502780
0.524214,2.502680,251.573000,2.502680,2.502680
0.525214,2.502590,251.566000,2.502590,2.502590
0.526214,2.502490,251.559000,2.502490,2.502490
0.527214,2.502400,251.551000,2.502400,2.502400
0.528214,2.502300,251.544000,2.502300,2.502300
0.529214,2.502210,251.537000,2.502210,2.502210
0.530214,2.502110,251.530000,2.502110,2.502110
0.531214,2.502020,251.523000,2.502020,2.502020
0.532214,2.501920,251.515000,2.501920,2.501920
0.533214,2.501830,251.508000,2.501830,2.501830
0.534214,2.501730,251.501000,2.501730,2.501730
0.535214,2.501640,251.494000,2.501640,2.501640
0.536214,2.501540,251.487000,2.501540,2.501540
0.537214,2.501450,251.480000,2.501450,2.501450
0.538214,2.501350,251.472000,2.501350,2.501350
0.539214,2.501260,251.465000,2.501260,2.501260
0.540214,2.501160,251.458000,2.501160,2.501160
0.541214,2.501070,251.451000,2.501070,2.501070
0.542214,2.500970,251.444000,2.500970,2.500970
0.543214,2.500880,251.436000,2.500880,2.500880
0.544214,2.500780,251.429000,2.500780,2.500780
0.545214,2.500690,251.422000,2.500690,2.500690
0.546214,2.500590,251.415000,2.500590,2.500590
0.547214,2.500500,251.408000,2.500500,2.500500
0.548214,2.500400,251.401000,2.500400,2.500400
0.549214,2.500310,251.393000,2.500310,2.500310
0.550214,2.500210,251.386000,2.500210,2.500210
0.551214,2.500120,251.379000,2.500120,2.500120
0.552214,2.500020,251.372000,2.500020,2.500020
0.553214,2.499930,251.365000,2.499930,2.499930
0.554214,2.499830,251.358000,2.499830,2.499830
0.555214,2.499740,251.350000,2.499740,2.499740
0.556214,2.499650,251.343000,2.499650,2.499650
0.557214,2.499550,251.336000,2.499550,2.499550
0.558214,2.499460,251.329000,2.499460,2.499460
